Longitud de onda (nm);Muestra 1 10mm Absorbance;Muestra 1-1 10mm Absorbance;Muestra 2 10mm Absorbance;Muestra 2-1 10mm Absorbance
190;275.584;277.091;207.534;211.166
190.5;273.422;273.699;208.1;208.202
191;270.552;271.064;207.421;206.804
191.5;265.927;267.528;207.073;205.278
192;261.93;264.372;204.887;202.965
192.5;258.506;260.913;203.918;201.593
193;255.075;257.797;202.298;200.147
193.5;252.152;255.513;200.149;197.598
194;249.234;253.318;197.565;195.274
194.5;245.93;250.279;195.664;193.539
195;243.284;246.928;192.912;191.971
195.5;240.456;243.664;190.303;190.285
196;238.187;240.244;187.118;187.981
196.5;234.918;236.222;184.202;185.449
197;231.878;231.342;181.255;182.087
197.5;228.128;228.078;178.926;179.5
198;224.692;224.805;176.29;176.021
198.5;221.064;221.16;173.623;171.938
199;216.804;217.449;170.745;168.665
199.5;212.943;213.681;168.371;165.599
200;209.502;209.225;165.887;163.042
200.5;205.725;205.602;163.445;160.589
201;202.107;202.239;160.941;158.769
201.5;198.873;199.086;158.393;157.215
202;195.605;195.88;156.2;155.419
202.5;192.608;193.613;154.14;153.866
203;189.725;190.911;151.756;151.614
203.5;187.491;188.886;149.604;149.514
204;185.159;186.687;147.651;147.509
204.5;183.079;184.165;145.591;145.655
205;181.055;181.407;143.409;143.315
205.5;178.093;178.362;141.205;140.876
206;175.454;175.455;139.078;138.511
206.5;172.465;172.417;136.708;135.987
207;169.474;169.541;134.718;133.639
207.5;166.584;166.188;132.704;131.4
208;163.13;163.475;130.247;128.819
208.5;160.412;160.912;127.972;126.652
209;157.546;157.719;125.706;124.56
209.5;154.314;154.512;122.861;122.162
210;151.118;150.944;120.161;119.762
210.5;147.763;147.783;117.916;117.722
211;144.626;144.68;115.363;115.584
211.5;141.228;141.612;113.101;113.347
212;138.005;139.138;111.199;111.214
212.5;135.349;136.224;109.207;108.772
213;132.6;133.631;107.031;106.365
213.5;130.359;130.739;104.934;104.455
214;128.094;128.103;102.599;102.286
214.5;125.54;125.539;100.268;100.047
215;122.895;122.899;98.245;98.034
215.5;120.3;120.199;96.379;96.331
216;117.622;117.648;94.114;94.267
216.5;114.754;115.316;92.35;92.276
217;112.291;112.91;90.623;90.3
217.5;110.193;110.301;88.838;88.24
218;107.962;107.969;86.975;86.313
218.5;106.008;106.005;85.234;84.654
219;104.026;103.991;83.338;82.793
219.5;101.838;101.801;81.761;81.164
220;99.593;99.726;80.188;79.652
220.5;97.46;97.69;78.524;78.332
221;95.338;95.937;76.852;76.864
221.5;93.292;93.872;75.166;75.457
222;91.483;91.845;73.499;73.951
222.5;89.568;89.917;71.907;72.441
223;87.434;87.767;70.236;70.666
223.5;85.302;85.593;68.552;68.965
224;83.07;83.194;66.946;67.24
224.5;80.936;81.033;65.539;65.616
225;78.796;79.052;64.104;64.021
225.5;76.726;77.068;62.435;62.48
226;74.742;75.017;60.751;60.827
226.5;72.778;73.047;58.954;59.094
227;70.86;71.245;57.314;57.511
227.5;69.075;69.492;55.852;56.085
228;67.327;67.871;54.45;54.677
228.5;65.822;66.46;53.27;53.485
229;64.55;65.227;52.279;52.516
229.5;63.321;64.041;51.366;51.614
230;62.13;62.812;50.407;50.658
230.5;60.804;61.495;49.307;49.601
231;59.37;59.936;48.071;48.357
231.5;57.805;58.286;46.718;47.011
232;56.101;56.555;45.268;45.545
232.5;54.366;54.795;43.802;44.087
233;52.617;53.07;42.307;42.651
233.5;50.945;51.303;40.87;41.265
234;49.4;49.784;39.54;39.987
234.5;47.901;48.376;38.376;38.781
235;46.578;47.145;37.244;37.646
235.5;45.326;45.958;36.211;36.6
236;44.219;44.811;35.318;35.627
236.5;43.147;43.759;34.456;34.739
237;42.033;42.628;33.543;33.869
237.5;40.959;41.552;32.685;33.017
238;39.972;40.575;31.84;32.232
238.5;39.024;39.496;31.069;31.46
239;38.232;38.528;30.381;30.747
239.5;37.345;37.56;29.742;30.079
240;36.538;36.643;29.08;29.39
240.5;35.714;35.804;28.444;28.722
241;35.043;35.094;27.956;28.168
241.5;34.4;34.577;27.462;27.726
242;33.88;34.16;27.062;27.371
242.5;33.459;33.923;26.726;27.058
243;33.143;33.67;26.394;26.796
243.5;32.856;33.279;26.079;26.493
244;32.521;32.788;25.749;26.221
244.5;32.009;32.215;25.393;25.851
245;31.57;31.649;25.001;25.436
245.5;31.198;31.251;24.675;25.112
246;30.962;31.06;24.495;24.929
246.5;30.725;30.97;24.333;24.793
247;30.609;31.019;24.314;24.717
247.5;30.563;31.045;24.313;24.709
248;30.519;31.05;24.306;24.7
248.5;30.418;30.919;24.239;24.652
249;30.121;30.593;24.066;24.499
249.5;29.684;30.167;23.82;24.179
250;29.315;29.747;23.545;23.888
250.5;29.095;29.502;23.348;23.715
251;28.942;29.343;23.198;23.567
251.5;28.87;29.27;23.124;23.47
252;28.893;29.205;23.118;23.415
252.5;29.004;29.24;23.165;23.465
253;29.08;29.297;23.161;23.52
253.5;29.141;29.308;23.182;23.577
254;29.128;29.257;23.163;23.573
254.5;28.963;29.164;23.149;23.475
255;28.844;29.05;23.104;23.365
255.5;28.767;28.952;23.077;23.304
256;28.668;28.84;23.055;23.275
256.5;28.54;28.769;23.025;23.211
257;28.419;28.613;22.942;23.173
257.5;28.305;28.501;22.844;23.112
258;28.178;28.366;22.726;23.024
258.5;28.178;28.388;22.711;22.997
259;28.272;28.464;22.748;22.998
259.5;28.29;28.553;22.812;23.025
260;28.377;28.693;22.867;23.063
260.5;28.517;28.843;22.997;23.126
261;28.539;28.834;23.019;23.192
261.5;28.494;28.806;23.006;23.194
262;28.441;28.714;22.997;23.212
262.5;28.435;28.611;22.994;23.201
263;28.512;28.568;23;23.222
263.5;28.579;28.574;22.995;23.23
264;28.608;28.486;23.032;23.24
264.5;28.553;28.448;23.065;23.282
265;28.533;28.508;23.09;23.231
265.5;28.572;28.537;23.101;23.148
266;28.462;28.473;22.975;23.047
266.5;28.353;28.405;22.9;22.976
267;28.282;28.406;22.839;22.864
267.5;28.317;28.452;22.773;22.809
268;28.317;28.43;22.649;22.731
268.5;28.226;28.313;22.523;22.649
269;28.057;28.07;22.403;22.552
269.5;27.933;27.906;22.356;22.458
270;27.837;27.798;22.319;22.339
270.5;27.871;27.888;22.339;22.323
271;27.729;27.881;22.375;22.289
271.5;27.568;27.828;22.404;22.252
272;27.413;27.828;22.351;22.198
272.5;27.306;27.768;22.255;22.144
273;27.076;27.543;22.084;22.009
273.5;26.841;27.212;21.81;21.802
274;26.437;26.767;21.451;21.489
274.5;26.096;26.37;21.118;21.145
275;25.761;26.015;20.793;20.822
275.5;25.468;25.758;20.552;20.544
276;25.112;25.505;20.384;20.268
276.5;24.776;25.249;20.173;20.026
277;24.515;25.114;20.044;19.88
277.5;24.318;24.983;19.924;19.774
278;24.143;24.746;19.796;19.669
278.5;24.03;24.508;19.658;19.51
279;23.798;24.27;19.492;19.351
279.5;23.667;24.13;19.348;19.205
280;23.516;23.947;19.211;19.059
280.5;23.361;23.785;19.077;18.873
281;23.177;23.651;18.945;18.676
281.5;23.003;23.524;18.82;18.537
282;22.867;23.433;18.695;18.419
282.5;22.594;23.219;18.48;18.293
283;22.428;22.885;18.287;18.132
283.5;22.275;22.558;18.125;17.982
284;22.042;22.258;17.885;17.791
284.5;21.735;21.974;17.651;17.579
285;21.456;21.736;17.435;17.373
285.5;21.234;21.523;17.274;17.139
286;20.984;21.293;17.125;16.971
286.5;20.871;21.2;17.027;16.899
287;20.642;20.968;16.84;16.752
287.5;20.373;20.701;16.675;16.593
288;20.175;20.386;16.467;16.387
288.5;20.002;20.125;16.296;16.207
289;19.721;19.907;16.054;16.004
289.5;19.404;19.673;15.862;15.792
290;19.237;19.553;15.747;15.646
290.5;19.098;19.407;15.651;15.514
291;18.987;19.31;15.564;15.426
291.5;18.896;19.208;15.475;15.35
292;18.694;19.052;15.305;15.207
292.5;18.595;18.874;15.166;15.049
293;18.401;18.682;14.973;14.875
293.5;18.222;18.563;14.82;14.705
294;17.972;18.458;14.709;14.578
294.5;17.779;18.285;14.638;14.44
295;17.611;18.183;14.557;14.326
295.5;17.444;18.108;14.484;14.212
296;17.326;18.015;14.407;14.086
296.5;17.155;17.799;14.26;13.955
297;16.992;17.615;14.045;13.793
297.5;16.853;17.389;13.842;13.651
298;16.542;17.116;13.586;13.471
298.5;16.283;16.848;13.36;13.259
299;16.046;16.58;13.182;13.126
299.5;15.797;16.208;12.964;12.991
300;15.563;16.013;12.798;12.873
300.5;15.408;15.846;12.682;12.751
301;15.285;15.618;12.561;12.591
301.5;15.148;15.424;12.447;12.428
302;15.005;15.215;12.267;12.257
302.5;14.821;15.049;12.098;12.1
303;14.472;14.776;11.851;11.84
303.5;14.212;14.492;11.63;11.588
304;13.966;14.276;11.399;11.454
304.5;13.731;13.998;11.167;11.332
305;13.57;13.834;11.02;11.245
305.5;13.45;13.653;10.886;11.1
306;13.313;13.441;10.785;10.957
306.5;13.146;13.235;10.642;10.776
307;13.019;12.977;10.471;10.598
307.5;12.889;12.848;10.335;10.447
308;12.673;12.683;10.16;10.278
308.5;12.568;12.569;10.055;10.176
309;12.483;12.531;9.969;10.162
309.5;12.438;12.414;9.909;10.129
310;12.36;12.346;9.872;10.054
310.5;12.269;12.359;9.855;9.993
311;12.161;12.296;9.821;9.933
311.5;11.973;12.168;9.672;9.795
312;11.814;11.946;9.543;9.662
312.5;11.686;11.788;9.428;9.56
313;11.547;11.657;9.312;9.486
313.5;11.478;11.561;9.266;9.443
314;11.427;11.532;9.227;9.446
314.5;11.432;11.503;9.215;9.401
315;11.322;11.46;9.179;9.32
315.5;11.181;11.406;9.135;9.234
316;11.085;11.279;9.026;9.088
316.5;10.932;11.054;8.844;8.899
317;10.81;10.802;8.734;8.742
317.5;10.707;10.632;8.614;8.628
318;10.558;10.494;8.494;8.533
318.5;10.471;10.42;8.421;8.489
319;10.496;10.535;8.447;8.605
319.5;10.521;10.579;8.454;8.644
320;10.399;10.488;8.397;8.618
320.5;10.278;10.362;8.311;8.577
321;10.228;10.2;8.174;8.429
321.5;10.135;9.919;8.031;8.267
322;10.102;9.738;7.919;8.118
322.5;9.985;9.633;7.825;7.986
323;9.844;9.563;7.8;7.895
323.5;9.838;9.616;7.805;7.847
324;9.852;9.755;7.909;7.929
324.5;9.82;9.754;7.901;7.856
325;9.744;9.728;7.83;7.814
325.5;9.7;9.753;7.81;7.845
326;9.588;9.64;7.733;7.768
326.5;9.409;9.461;7.656;7.665
327;9.286;9.338;7.571;7.599
327.5;9.158;9.218;7.511;7.567
328;9.1;9.137;7.462;7.538
328.5;9.02;9.027;7.332;7.414
329;8.918;8.867;7.249;7.326
329.5;8.868;8.703;7.136;7.164
330;8.87;8.663;7.025;7.09
330.5;8.783;8.614;6.985;7.087
331;8.678;8.557;6.954;7.075
331.5;8.538;8.61;6.968;7.051
332;8.463;8.67;6.974;7.043
332.5;8.441;8.665;6.955;7.043
333;8.399;8.667;6.949;7.045
333.5;8.33;8.576;6.861;6.955
334;8.305;8.46;6.812;6.891
334.5;8.271;8.271;6.711;6.769
335;8.178;8.175;6.547;6.682
335.5;7.982;7.969;6.412;6.614
336;7.894;7.88;6.331;6.551
336.5;7.783;7.793;6.216;6.463
337;7.694;7.636;6.067;6.3
337.5;7.605;7.468;5.967;6.173
338;7.444;7.324;5.922;6.076
338.5;7.426;7.222;5.852;5.981
339;7.505;7.201;5.877;6.001
339.5;7.464;7.089;5.806;5.937
340;7.294;7.114;5.737;5.898
340.5;7.202;7.121;5.753;5.877
341;7.198;7.186;5.735;5.921
341.5;7.136;7.173;5.685;5.944
342;7.054;7.11;5.602;5.868
342.5;6.965;7.056;5.556;5.786
343;6.962;7.06;5.579;5.785
343.5;7.042;7.076;5.546;5.78
344;7.131;7.084;5.567;5.822
344.5;7.124;7.04;5.525;5.765
345;7.02;6.946;5.542;5.705
345.5;6.988;6.846;5.56;5.655
346;6.931;6.81;5.514;5.635
346.5;6.797;6.687;5.449;5.554
347;6.703;6.609;5.354;5.465
347.5;6.643;6.5;5.309;5.394
348;6.687;6.466;5.294;5.399
348.5;6.623;6.485;5.211;5.351
349;6.595;6.487;5.199;5.368
349.5;6.548;6.507;5.192;5.355
350;6.548;6.435;5.228;5.396
350.5;6.492;6.327;5.183;5.35
351;6.394;6.234;5.127;5.31
351.5;6.318;6.043;5.041;5.225
352;6.284;5.938;4.976;5.176
352.5;6.252;5.879;4.98;5.13
353;6.236;5.878;4.963;5.104
353.5;6.221;5.975;4.949;5.077
354;6.242;6.094;4.988;5.12
354.5;6.244;6.218;4.997;5.124
355;6.261;6.294;4.981;5.141
355.5;6.187;6.297;4.931;5.091
356;6.17;6.305;4.909;5.074
356.5;6.111;6.229;4.9;5.011
357;6.043;6.186;4.868;4.93
357.5;5.983;6.166;4.869;4.869
358;5.903;6.125;4.865;4.803
358.5;5.913;6.08;4.864;4.797
359;5.88;6.044;4.873;4.811
359.5;5.813;5.961;4.817;4.739
360;5.769;5.863;4.757;4.682
360.5;5.785;5.81;4.712;4.707
361;5.932;5.863;4.745;4.793
361.5;5.942;5.869;4.8;4.836
362;5.967;5.883;4.826;4.84
362.5;5.914;5.83;4.8;4.815
363;5.87;5.796;4.787;4.772
363.5;5.89;5.733;4.757;4.751
364;5.801;5.732;4.714;4.681
364.5;5.643;5.691;4.618;4.563
365;5.461;5.553;4.475;4.436
365.5;5.382;5.432;4.323;4.383
366;5.354;5.333;4.269;4.335
366.5;5.161;5.188;4.188;4.269
367;5.018;5.048;4.15;4.199
367.5;4.902;4.898;4.041;4.147
368;4.865;4.738;3.985;4.107
368.5;4.874;4.666;3.992;4.078
369;4.916;4.723;4.004;4.044
369.5;4.825;4.654;3.954;3.968
370;4.746;4.58;3.888;3.916
370.5;4.793;4.513;3.857;3.909
371;4.79;4.494;3.829;3.909
371.5;4.645;4.493;3.794;3.907
372;4.565;4.523;3.766;3.881
372.5;4.539;4.533;3.703;3.871
373;4.538;4.538;3.654;3.841
373.5;4.524;4.55;3.6;3.788
374;4.533;4.584;3.581;3.788
374.5;4.475;4.543;3.501;3.675
375;4.503;4.501;3.516;3.637
375.5;4.509;4.441;3.534;3.589
376;4.528;4.422;3.574;3.588
376.5;4.455;4.371;3.61;3.559
377;4.419;4.39;3.641;3.573
377.5;4.38;4.351;3.665;3.562
378;4.387;4.32;3.651;3.57
378.5;4.473;4.319;3.626;3.613
379;4.455;4.318;3.595;3.665
379.5;4.364;4.278;3.468;3.595
380;4.384;4.202;3.424;3.547
380.5;4.367;4.108;3.351;3.47
381;4.3;3.974;3.293;3.407
381.5;4.236;3.901;3.237;3.358
382;4.166;3.91;3.177;3.33
382.5;4.114;3.875;3.144;3.312
383;4.139;3.833;3.141;3.318
383.5;4.196;3.837;3.169;3.335
384;4.158;3.816;3.175;3.329
384.5;4.084;3.848;3.193;3.34
385;4.016;3.816;3.2;3.277
385.5;3.918;3.712;3.154;3.193
386;3.788;3.645;3.137;3.141
386.5;3.769;3.743;3.141;3.148
387;3.806;3.757;3.07;3.098
387.5;3.79;3.68;3.024;3.12
388;3.801;3.659;3.012;3.107
388.5;3.731;3.571;2.994;3.059
389;3.703;3.492;2.95;3.053
389.5;3.581;3.411;2.895;2.997
390;3.522;3.336;2.872;2.941
390.5;3.451;3.329;2.87;2.917
391;3.503;3.461;2.947;2.95
391.5;3.534;3.581;2.978;2.991
392;3.589;3.607;2.979;3.001
392.5;3.59;3.626;3.001;3.061
393;3.609;3.691;3.01;3.081
393.5;3.538;3.646;2.984;3.045
394;3.566;3.627;2.966;3.04
394.5;3.524;3.522;2.915;2.976
395;3.599;3.493;2.921;2.965
395.5;3.567;3.442;2.87;2.91
396;3.533;3.344;2.799;2.83
396.5;3.394;3.205;2.665;2.743
397;3.341;3.127;2.575;2.699
397.5;3.275;3.063;2.513;2.69
398;3.224;2.99;2.447;2.649
398.5;3.186;2.962;2.438;2.629
399;3.206;2.969;2.461;2.65
399.5;3.16;2.892;2.45;2.65
400;3.135;2.822;2.409;2.648
400.5;3.079;2.751;2.363;2.619
401;2.941;2.641;2.286;2.547
401.5;2.829;2.583;2.223;2.501
402;2.845;2.544;2.195;2.45
402.5;2.854;2.551;2.183;2.436
403;2.872;2.617;2.2;2.392
403.5;2.88;2.7;2.241;2.379
404;2.93;2.779;2.292;2.397
404.5;2.987;2.844;2.308;2.433
405;3.012;2.885;2.306;2.452
405.5;2.975;2.891;2.291;2.451
406;2.919;2.884;2.278;2.467
406.5;2.888;2.872;2.27;2.478
407;2.88;2.789;2.23;2.428
407.5;2.859;2.691;2.175;2.407
408;2.832;2.644;2.128;2.364
408.5;2.816;2.584;2.086;2.278
409;2.851;2.53;2.095;2.269
409.5;2.827;2.461;2.072;2.214
410;2.738;2.349;2.005;2.132
410.5;2.585;2.29;1.926;2.089
411;2.571;2.307;1.967;2.113
411.5;2.593;2.322;1.996;2.133
412;2.57;2.272;2.001;2.144
412.5;2.569;2.229;1.977;2.144
413;2.529;2.28;1.942;2.145
413.5;2.5;2.25;1.905;2.105
414;2.415;2.203;1.876;2.074
414.5;2.282;2.089;1.818;1.997
415;2.209;1.988;1.73;1.925
415.5;2.139;1.994;1.673;1.871
416;2.19;2.002;1.659;1.825
416.5;2.278;1.998;1.64;1.803
417;2.309;1.977;1.629;1.811
417.5;2.411;2.113;1.667;1.845
418;2.457;2.222;1.695;1.879
418.5;2.436;2.255;1.699;1.916
419;2.316;2.299;1.716;1.923
419.5;2.282;2.339;1.791;1.98
420;2.301;2.376;1.812;2.023
420.5;2.29;2.382;1.811;2.01
421;2.28;2.3;1.778;1.965
421.5;2.244;2.203;1.74;1.902
422;2.255;2.165;1.735;1.877
422.5;2.321;2.238;1.772;1.895
423;2.348;2.243;1.776;1.897
423.5;2.326;2.242;1.762;1.93
424;2.322;2.267;1.765;1.949
424.5;2.368;2.268;1.733;1.946
425;2.356;2.184;1.627;1.904
425.5;2.282;2.044;1.523;1.813
426;2.273;1.957;1.479;1.751
426.5;2.157;1.834;1.39;1.659
427;2.106;1.83;1.393;1.636
427.5;2.086;1.846;1.429;1.658
428;1.995;1.825;1.443;1.652
428.5;1.959;1.847;1.49;1.699
429;1.933;1.787;1.466;1.694
429.5;1.891;1.645;1.39;1.633
430;1.784;1.549;1.305;1.582
430.5;1.696;1.472;1.224;1.483
431;1.661;1.416;1.187;1.438
431.5;1.547;1.347;1.111;1.351
432;1.499;1.324;1.088;1.317
432.5;1.562;1.391;1.122;1.345
433;1.555;1.463;1.154;1.374
433.5;1.604;1.584;1.197;1.427
434;1.659;1.64;1.203;1.463
434.5;1.64;1.593;1.2;1.458
435;1.63;1.608;1.199;1.456
435.5;1.636;1.574;1.191;1.428
436;1.626;1.495;1.166;1.378
436.5;1.579;1.438;1.115;1.306
437;1.567;1.38;1.091;1.267
437.5;1.659;1.451;1.105;1.267
438;1.689;1.514;1.117;1.294
438.5;1.666;1.55;1.097;1.308
439;1.668;1.555;1.115;1.33
439.5;1.603;1.498;1.095;1.336
440;1.562;1.471;1.083;1.351
440.5;1.538;1.381;1.055;1.348
441;1.498;1.303;1.029;1.313
441.5;1.46;1.282;1.025;1.292
442;1.402;1.203;1;1.245
442.5;1.45;1.168;1.009;1.206
443;1.399;1.147;0.992;1.194
443.5;1.298;1.109;0.958;1.171
444;1.284;1.12;0.978;1.155
444.5;1.297;1.202;0.986;1.168
445;1.299;1.258;0.991;1.155
445.5;1.323;1.334;1;1.172
446;1.368;1.464;1.064;1.228
446.5;1.384;1.53;1.1;1.266
447;1.361;1.492;1.101;1.263
447.5;1.362;1.416;1.084;1.262
448;1.311;1.376;1.067;1.273
448.5;1.262;1.312;1.014;1.287
449;1.24;1.247;1.014;1.262
449.5;1.188;1.103;0.97;1.197
450;1.106;0.967;0.89;1.091
450.5;1.026;0.919;0.833;1.063
451;1.012;0.916;0.81;1.056
451.5;1.01;0.912;0.77;1.041
452;0.979;0.907;0.715;1.011
452.5;1;0.935;0.666;1.004
453;0.983;0.959;0.641;0.968
453.5;0.99;0.905;0.604;0.956
454;1.003;0.869;0.599;0.94
454.5;0.97;0.735;0.565;0.888
455;0.908;0.628;0.521;0.8
455.5;0.864;0.533;0.502;0.757
456;0.89;0.479;0.51;0.766
456.5;0.846;0.429;0.477;0.74
457;0.783;0.426;0.474;0.712
457.5;0.741;0.459;0.486;0.713
458;0.691;0.472;0.474;0.691
458.5;0.71;0.499;0.477;0.698
459;0.744;0.582;0.485;0.716
459.5;0.781;0.658;0.486;0.73
460;0.842;0.728;0.527;0.738
460.5;0.882;0.787;0.551;0.753
461;0.938;0.826;0.578;0.77
461.5;0.916;0.799;0.561;0.743
462;0.822;0.705;0.524;0.668
462.5;0.779;0.646;0.482;0.647
463;0.702;0.482;0.417;0.608
463.5;0.648;0.374;0.397;0.591
464;0.625;0.31;0.396;0.573
464.5;0.59;0.227;0.349;0.544
465;0.535;0.216;0.333;0.512
465.5;0.566;0.232;0.327;0.506
466;0.562;0.235;0.292;0.444
466.5;0.496;0.252;0.251;0.408
467;0.37;0.194;0.163;0.321
467.5;0.359;0.153;0.112;0.296
468;0.363;0.108;0.121;0.33
468.5;0.398;0.14;0.153;0.39
469;0.451;0.156;0.175;0.423
469.5;0.477;0.156;0.14;0.407
470;0.518;0.212;0.139;0.403
470.5;0.634;0.245;0.147;0.4
471;0.671;0.265;0.135;0.358
471.5;0.674;0.291;0.157;0.363
472;0.632;0.232;0.146;0.331
472.5;0.62;0.179;0.173;0.331
473;0.547;0.094;0.189;0.36
473.5;0.512;0.058;0.235;0.385
474;0.455;-0.011;0.203;0.362
474.5;0.339;-0.077;0.146;0.333
475;0.269;-0.147;0.093;0.306
475.5;0.258;-0.118;0.053;0.273
476;0.236;-0.081;-0.005;0.243
476.5;0.192;-0.1;-0.078;0.192
477;0.131;-0.123;-0.112;0.159
477.5;0.141;-0.097;-0.132;0.135
478;0.117;-0.137;-0.144;0.119
478.5;0.126;-0.15;-0.116;0.103
479;0.19;-0.097;-0.107;0.098
479.5;0.184;-0.13;-0.12;0.105
480;0.185;-0.221;-0.146;0.071
480.5;0.213;-0.233;-0.145;0.082
481;0.168;-0.293;-0.198;0.059
481.5;0.139;-0.32;-0.231;0.017
482;0.145;-0.283;-0.195;0.062
482.5;0.143;-0.185;-0.149;0.106
483;0.162;-0.068;-0.08;0.168
483.5;0.149;0.004;-0.013;0.184
484;0.172;0.126;0.044;0.213
484.5;0.173;0.139;0.07;0.211
485;0.214;0.171;0.108;0.231
485.5;0.272;0.218;0.15;0.267
486;0.334;0.214;0.161;0.261
486.5;0.428;0.29;0.173;0.286
487;0.474;0.348;0.205;0.338
487.5;0.524;0.433;0.257;0.414
488;0.548;0.479;0.279;0.443
488.5;0.473;0.361;0.241;0.426
489;0.361;0.251;0.193;0.405
489.5;0.257;0.161;0.14;0.363
490;0.217;0.169;0.088;0.365
490.5;0.202;0.15;0.03;0.329
491;0.2;0.103;-0.02;0.265
491.5;0.19;0.088;-0.056;0.241
492;0.138;0.078;-0.068;0.181
492.5;0.171;0.079;-0.06;0.145
493;0.157;0.055;-0.076;0.121
493.5;0.123;-0.098;-0.151;0.072
494;0.095;-0.17;-0.136;0.071
494.5;0.01;-0.248;-0.142;0.054
495;-0.055;-0.38;-0.175;0.033
495.5;-0.016;-0.428;-0.177;0.009
496;0.01;-0.418;-0.157;0.012
496.5;-0.047;-0.431;-0.145;0.009
497;-0.051;-0.409;-0.152;-0.029
497.5;-0.098;-0.396;-0.191;-0.06
498;-0.12;-0.362;-0.221;-0.05
498.5;-0.063;-0.343;-0.279;-0.046
499;-0.055;-0.378;-0.289;-0.044
499.5;-0.097;-0.43;-0.334;-0.068
500;-0.082;-0.508;-0.389;-0.102
500.5;0.016;-0.436;-0.354;-0.063
501;0.088;-0.396;-0.35;-0.057
501.5;0.093;-0.383;-0.336;-0.06
502;0.097;-0.424;-0.33;-0.085
502.5;0.081;-0.39;-0.297;-0.086
503;0.089;-0.365;-0.259;-0.08
503.5;0.098;-0.341;-0.233;-0.036
504;0.097;-0.338;-0.233;0.013
504.5;0.078;-0.307;-0.25;0.025
505;0.02;-0.269;-0.248;0.068
505.5;-0.013;-0.219;-0.229;0.108
506;0.008;-0.249;-0.266;0.06
506.5;-0.03;-0.327;-0.282;0.019
507;-0.139;-0.451;-0.317;-0.054
507.5;-0.156;-0.421;-0.329;-0.064
508;-0.161;-0.409;-0.337;-0.095
508.5;-0.125;-0.395;-0.359;-0.059
509;-0.14;-0.368;-0.388;-0.047
509.5;-0.119;-0.302;-0.385;-0.034
510;-0.105;-0.263;-0.345;-0.011
510.5;-0.042;-0.231;-0.31;-0.005
511;-0.029;-0.232;-0.326;-0.031
511.5;-0.098;-0.316;-0.326;-0.063
512;-0.218;-0.329;-0.305;-0.064
512.5;-0.274;-0.293;-0.246;-0.03
513;-0.256;-0.245;-0.223;0.005
513.5;-0.164;-0.214;-0.189;0.063
514;-0.127;-0.174;-0.184;0.064
514.5;-0.127;-0.158;-0.204;0.044
515;-0.075;-0.212;-0.234;-0.005
515.5;-0.048;-0.324;-0.315;-0.046
516;-0.044;-0.421;-0.393;-0.116
516.5;-0.168;-0.506;-0.445;-0.179
517;-0.185;-0.519;-0.444;-0.18
517.5;-0.222;-0.535;-0.403;-0.177
518;-0.182;-0.449;-0.383;-0.099
518.5;-0.147;-0.475;-0.36;-0.068
519;-0.107;-0.417;-0.339;-0.027
519.5;-0.181;-0.416;-0.339;-0.002
520;-0.195;-0.465;-0.334;-0.024
520.5;-0.146;-0.47;-0.291;0.007
521;-0.088;-0.446;-0.291;-0.009
521.5;-0.185;-0.47;-0.337;-0.051
522;-0.167;-0.475;-0.357;-0.091
522.5;-0.227;-0.503;-0.399;-0.15
523;-0.255;-0.476;-0.42;-0.173
523.5;-0.306;-0.544;-0.453;-0.225
524;-0.335;-0.572;-0.437;-0.185
524.5;-0.337;-0.542;-0.354;-0.138
525;-0.278;-0.492;-0.304;-0.105
525.5;-0.182;-0.435;-0.254;-0.06
526;-0.189;-0.444;-0.323;-0.077
526.5;-0.211;-0.514;-0.402;-0.119
527;-0.166;-0.5;-0.422;-0.147
527.5;-0.155;-0.455;-0.456;-0.212
528;-0.13;-0.362;-0.473;-0.228
528.5;-0.127;-0.269;-0.436;-0.183
529;-0.12;-0.228;-0.348;-0.101
529.5;-0.136;-0.196;-0.243;-0.023
530;-0.193;-0.18;-0.223;0.028
530.5;-0.271;-0.292;-0.238;0.001
531;-0.372;-0.43;-0.321;-0.071
531.5;-0.337;-0.491;-0.349;-0.11
532;-0.308;-0.516;-0.357;-0.11
532.5;-0.289;-0.479;-0.387;-0.17
533;-0.317;-0.491;-0.419;-0.234
533.5;-0.327;-0.481;-0.439;-0.255
534;-0.372;-0.568;-0.46;-0.295
534.5;-0.424;-0.69;-0.485;-0.339
535;-0.513;-0.734;-0.501;-0.35
535.5;-0.552;-0.817;-0.549;-0.409
536;-0.511;-0.814;-0.56;-0.414
536.5;-0.456;-0.764;-0.525;-0.378
537;-0.462;-0.735;-0.497;-0.315
537.5;-0.434;-0.622;-0.471;-0.246
538;-0.457;-0.626;-0.497;-0.235
538.5;-0.446;-0.657;-0.551;-0.248
539;-0.373;-0.702;-0.594;-0.227
539.5;-0.353;-0.766;-0.61;-0.242
540;-0.317;-0.739;-0.535;-0.189
540.5;-0.283;-0.728;-0.492;-0.183
541;-0.25;-0.698;-0.43;-0.163
541.5;-0.258;-0.632;-0.353;-0.142
542;-0.265;-0.514;-0.268;-0.108
542.5;-0.276;-0.456;-0.244;-0.086
543;-0.283;-0.452;-0.287;-0.107
543.5;-0.287;-0.479;-0.358;-0.151
544;-0.178;-0.414;-0.395;-0.136
544.5;-0.149;-0.357;-0.413;-0.134
545;-0.177;-0.306;-0.388;-0.105
545.5;-0.227;-0.347;-0.455;-0.168
546;-0.262;-0.435;-0.541;-0.276
546.5;-0.281;-0.505;-0.592;-0.369
547;-0.384;-0.674;-0.648;-0.468
547.5;-0.523;-0.958;-0.745;-0.573
548;-0.613;-1.125;-0.794;-0.581
548.5;-0.731;-1.239;-0.834;-0.588
549;-0.719;-1.188;-0.79;-0.525
549.5;-0.701;-1.035;-0.73;-0.41
550;-0.685;-0.816;-0.657;-0.27
550.5;-0.65;-0.655;-0.643;-0.203
551;-0.581;-0.544;-0.624;-0.17
551.5;-0.584;-0.566;-0.653;-0.201
552;-0.528;-0.655;-0.677;-0.252
552.5;-0.51;-0.779;-0.734;-0.332
553;-0.507;-0.959;-0.762;-0.366
553.5;-0.54;-1.089;-0.808;-0.43
554;-0.528;-1.137;-0.817;-0.464
554.5;-0.48;-1.126;-0.851;-0.454
555;-0.472;-1.063;-0.864;-0.444
555.5;-0.415;-1.002;-0.825;-0.408
556;-0.374;-0.918;-0.753;-0.353
556.5;-0.402;-0.926;-0.772;-0.397
557;-0.33;-0.87;-0.748;-0.433
557.5;-0.311;-0.855;-0.738;-0.444
558;-0.325;-0.883;-0.733;-0.421
558.5;-0.31;-0.865;-0.694;-0.394
559;-0.359;-0.871;-0.708;-0.365
559.5;-0.377;-0.852;-0.712;-0.33
560;-0.347;-0.819;-0.745;-0.338
560.5;-0.416;-0.855;-0.769;-0.393
561;-0.51;-0.917;-0.823;-0.454
561.5;-0.618;-1.063;-0.913;-0.579
562;-0.729;-1.123;-0.963;-0.649
562.5;-0.78;-1.146;-0.965;-0.646
563;-0.751;-1.122;-0.927;-0.623
563.5;-0.74;-1.137;-0.872;-0.588
564;-0.732;-1.165;-0.866;-0.557
564.5;-0.609;-1.105;-0.804;-0.497
565;-0.465;-1.083;-0.819;-0.482
565.5;-0.443;-1.113;-0.831;-0.544
566;-0.44;-1.129;-0.835;-0.549
566.5;-0.495;-1.171;-0.853;-0.599
567;-0.662;-1.163;-0.884;-0.621
567.5;-0.68;-1.113;-0.88;-0.642
568;-0.72;-1.095;-0.889;-0.693
568.5;-0.769;-1.121;-0.921;-0.737
569;-0.784;-1.15;-0.951;-0.784
569.5;-0.674;-1.078;-0.898;-0.748
570;-0.536;-1.033;-0.896;-0.706
570.5;-0.429;-0.974;-0.826;-0.65
571;-0.373;-0.947;-0.783;-0.584
571.5;-0.391;-0.97;-0.769;-0.552
572;-0.399;-0.966;-0.795;-0.55
572.5;-0.435;-1.008;-0.801;-0.541
573;-0.51;-1.094;-0.857;-0.618
573.5;-0.595;-1.207;-0.924;-0.671
574;-0.646;-1.272;-0.912;-0.665
574.5;-0.587;-1.162;-0.821;-0.582
575;-0.601;-1.131;-0.78;-0.538
575.5;-0.615;-1.092;-0.745;-0.487
576;-0.606;-1.058;-0.7;-0.432
576.5;-0.622;-1.066;-0.721;-0.424
577;-0.546;-1.033;-0.79;-0.437
577.5;-0.613;-1.081;-0.822;-0.479
578;-0.654;-1.063;-0.873;-0.522
578.5;-0.795;-1.122;-0.944;-0.605
579;-0.862;-1.18;-0.948;-0.676
579.5;-0.989;-1.267;-1.018;-0.789
580;-1.074;-1.319;-1.048;-0.842
580.5;-1.031;-1.307;-1.045;-0.852
581;-0.886;-1.173;-0.981;-0.743
581.5;-0.8;-1.184;-0.986;-0.671
582;-0.63;-1.16;-0.99;-0.608
582.5;-0.59;-1.154;-0.951;-0.539
583;-0.5;-1.039;-0.866;-0.436
583.5;-0.524;-1.029;-0.853;-0.436
584;-0.535;-1.064;-0.811;-0.442
584.5;-0.642;-1.133;-0.884;-0.525
585;-0.651;-1.063;-0.846;-0.545
585.5;-0.627;-1.012;-0.804;-0.558
586;-0.616;-0.977;-0.778;-0.558
586.5;-0.562;-0.946;-0.777;-0.557
587;-0.465;-0.965;-0.772;-0.614
587.5;-0.419;-1.051;-0.799;-0.654
588;-0.337;-1.086;-0.789;-0.65
588.5;-0.404;-1.177;-0.865;-0.692
589;-0.487;-1.22;-0.887;-0.713
589.5;-0.586;-1.29;-0.941;-0.729
590;-0.697;-1.271;-0.943;-0.686
590.5;-0.802;-1.3;-0.952;-0.639
591;-0.861;-1.316;-1.028;-0.672
591.5;-0.786;-1.275;-1.018;-0.656
592;-0.718;-1.316;-1.036;-0.703
592.5;-0.609;-1.384;-1.077;-0.751
593;-0.571;-1.399;-1.075;-0.754
593.5;-0.522;-1.33;-1.04;-0.735
594;-0.478;-1.26;-0.99;-0.682
594.5;-0.428;-1.154;-0.93;-0.614
595;-0.435;-0.982;-0.861;-0.51
595.5;-0.535;-0.876;-0.837;-0.478
596;-0.484;-0.698;-0.791;-0.435
596.5;-0.484;-0.616;-0.747;-0.435
597;-0.582;-0.668;-0.765;-0.499
597.5;-0.681;-0.815;-0.834;-0.582
598;-0.813;-0.887;-0.881;-0.609
598.5;-0.783;-0.935;-0.91;-0.62
599;-0.732;-1.066;-0.942;-0.64
599.5;-0.682;-1.146;-0.953;-0.66
600;-0.705;-1.193;-0.946;-0.673
600.5;-0.744;-1.247;-0.957;-0.7
601;-0.676;-1.171;-0.915;-0.674
601.5;-0.694;-1.233;-0.91;-0.716
602;-0.634;-1.187;-0.854;-0.682
602.5;-0.575;-1.154;-0.856;-0.654
603;-0.577;-1.005;-0.839;-0.624
603.5;-0.448;-0.804;-0.807;-0.586
604;-0.383;-0.665;-0.786;-0.555
604.5;-0.364;-0.613;-0.808;-0.536
605;-0.489;-0.66;-0.859;-0.556
605.5;-0.58;-0.765;-0.923;-0.625
606;-0.632;-0.879;-0.952;-0.656
606.5;-0.744;-1.069;-0.976;-0.73
607;-0.72;-1.143;-0.953;-0.718
607.5;-0.699;-1.233;-0.946;-0.747
608;-0.837;-1.323;-0.943;-0.79
608.5;-0.857;-1.351;-0.912;-0.799
609;-0.838;-1.275;-0.856;-0.743
609.5;-0.784;-1.253;-0.852;-0.711
610;-0.808;-1.244;-0.882;-0.664
610.5;-0.771;-1.197;-0.892;-0.631
611;-0.724;-1.171;-0.852;-0.575
611.5;-0.68;-1.095;-0.84;-0.578
612;-0.662;-1.049;-0.876;-0.601
612.5;-0.715;-1.098;-0.901;-0.643
613;-0.827;-1.174;-0.931;-0.703
613.5;-0.895;-1.155;-0.962;-0.757
614;-0.89;-1.155;-0.939;-0.729
614.5;-0.886;-1.182;-0.986;-0.75
615;-0.836;-1.142;-1.019;-0.732
615.5;-0.811;-1.15;-1.069;-0.746
616;-0.815;-1.244;-1.121;-0.778
616.5;-0.825;-1.316;-1.151;-0.816
617;-0.836;-1.325;-1.175;-0.847
617.5;-0.948;-1.384;-1.17;-0.848
618;-1.008;-1.388;-1.106;-0.844
618.5;-0.994;-1.311;-1.082;-0.787
619;-0.903;-1.234;-1.034;-0.693
619.5;-0.829;-1.136;-1.017;-0.65
620;-0.724;-0.993;-0.936;-0.572
620.5;-0.741;-0.979;-0.952;-0.569
621;-0.757;-1.089;-1;-0.62
621.5;-0.81;-1.215;-1.019;-0.657
622;-0.865;-1.349;-1.06;-0.759
622.5;-1.022;-1.519;-1.114;-0.859
623;-1.132;-1.78;-1.18;-0.999
623.5;-1.133;-1.932;-1.25;-1.084
624;-1.021;-1.873;-1.23;-1.09
624.5;-0.889;-1.755;-1.208;-1.055
625;-0.816;-1.577;-1.145;-0.955
625.5;-0.761;-1.428;-1.068;-0.865
626;-0.608;-1.232;-0.938;-0.734
626.5;-0.395;-0.983;-0.827;-0.556
627;-0.261;-0.843;-0.757;-0.456
627.5;-0.331;-0.83;-0.699;-0.455
628;-0.365;-0.916;-0.676;-0.501
628.5;-0.385;-0.954;-0.683;-0.521
629;-0.341;-0.886;-0.693;-0.535
629.5;-0.378;-0.947;-0.771;-0.581
630;-0.561;-1.115;-0.899;-0.656
630.5;-0.715;-1.298;-1.007;-0.725
631;-0.769;-1.405;-1.061;-0.754
631.5;-0.704;-1.379;-1.137;-0.722
632;-0.786;-1.415;-1.18;-0.745
632.5;-0.891;-1.368;-1.146;-0.719
633;-0.846;-1.304;-1.076;-0.7
633.5;-0.758;-1.205;-1.019;-0.623
634;-0.717;-1.115;-0.969;-0.614
634.5;-0.746;-1.16;-0.957;-0.639
635;-0.959;-1.284;-0.988;-0.716
635.5;-1.068;-1.41;-1.03;-0.794
636;-1.087;-1.459;-1.053;-0.884
636.5;-1.011;-1.399;-1.091;-0.861
637;-1.065;-1.494;-1.175;-0.918
637.5;-1.019;-1.535;-1.199;-0.871
638;-0.909;-1.517;-1.205;-0.816
638.5;-0.782;-1.439;-1.21;-0.751
639;-0.651;-1.441;-1.224;-0.721
639.5;-0.546;-1.426;-1.221;-0.71
640;-0.657;-1.549;-1.22;-0.743
640.5;-0.658;-1.541;-1.137;-0.759
641;-0.74;-1.616;-1.134;-0.784
641.5;-0.766;-1.639;-1.137;-0.789
642;-0.771;-1.638;-1.115;-0.794
642.5;-0.719;-1.56;-1.035;-0.756
643;-0.687;-1.43;-1.004;-0.702
643.5;-0.662;-1.331;-0.96;-0.675
644;-0.518;-1.202;-0.921;-0.641
644.5;-0.444;-1.12;-0.945;-0.645
645;-0.497;-1.179;-0.977;-0.684
645.5;-0.5;-1.12;-0.892;-0.637
646;-0.647;-1.165;-0.895;-0.634
646.5;-0.655;-1.132;-0.895;-0.615
647;-0.636;-1.125;-0.911;-0.626
647.5;-0.61;-1.087;-0.906;-0.656
648;-0.584;-1.08;-0.911;-0.655
648.5;-0.685;-1.166;-0.937;-0.712
649;-0.671;-1.022;-0.947;-0.695
649.5;-0.565;-0.858;-0.945;-0.613
650;-0.513;-0.732;-0.89;-0.542
650.5;-0.479;-0.664;-0.737;-0.457
651;-0.532;-0.603;-0.663;-0.398
651.5;-0.577;-0.651;-0.649;-0.439
652;-0.676;-0.83;-0.731;-0.496
652.5;-0.753;-0.923;-0.781;-0.554
653;-0.757;-1.013;-0.825;-0.527
653.5;-0.856;-1.113;-0.963;-0.619
654;-0.893;-1.075;-0.983;-0.584
654.5;-0.77;-0.893;-0.9;-0.496
655;-0.657;-0.862;-0.83;-0.431
655.5;-0.653;-0.876;-0.724;-0.446
656;-0.599;-0.873;-0.671;-0.477
656.5;-0.608;-0.987;-0.651;-0.615
657;-0.681;-1.07;-0.699;-0.684
657.5;-0.726;-1.127;-0.719;-0.739
658;-0.741;-1.124;-0.699;-0.742
658.5;-0.807;-1.09;-0.773;-0.734
659;-0.779;-0.973;-0.737;-0.642
659.5;-0.736;-0.919;-0.73;-0.541
660;-0.687;-0.945;-0.774;-0.432
660.5;-0.667;-0.937;-0.786;-0.383
661;-0.586;-0.889;-0.8;-0.384
661.5;-0.532;-0.928;-0.847;-0.444
662;-0.549;-0.978;-0.903;-0.504
662.5;-0.653;-1.082;-0.941;-0.592
663;-0.703;-1.115;-0.908;-0.623
663.5;-0.651;-0.939;-0.888;-0.559
664;-0.591;-0.828;-0.868;-0.479
664.5;-0.539;-0.913;-0.896;-0.5
665;-0.541;-0.909;-0.893;-0.477
665.5;-0.476;-0.807;-0.925;-0.454
666;-0.456;-0.791;-0.929;-0.474
666.5;-0.467;-0.859;-0.949;-0.499
667;-0.525;-0.954;-1.005;-0.595
667.5;-0.638;-1.068;-1.053;-0.699
668;-0.634;-1.144;-1.09;-0.791
668.5;-0.635;-1.146;-1.143;-0.877
669;-0.666;-1.141;-1.158;-0.94
669.5;-0.685;-1.317;-1.19;-1.108
670;-0.768;-1.344;-1.22;-1.184
670.5;-0.836;-1.331;-1.204;-1.148
671;-0.916;-1.331;-1.12;-1.084
671.5;-0.934;-1.297;-1.007;-0.974
672;-0.866;-1.201;-0.924;-0.893
672.5;-0.804;-1.143;-0.88;-0.834
673;-0.718;-1.147;-0.91;-0.788
673.5;-0.69;-1.178;-0.94;-0.77
674;-0.608;-1.176;-0.922;-0.785
674.5;-0.598;-1.216;-0.976;-0.822
675;-0.526;-1.246;-1.009;-0.815
675.5;-0.53;-1.224;-0.99;-0.762
676;-0.671;-1.314;-1.032;-0.818
676.5;-0.753;-1.423;-1.052;-0.857
677;-0.718;-1.401;-1.023;-0.864
677.5;-0.76;-1.474;-1.056;-0.903
678;-0.857;-1.675;-1.127;-0.963
678.5;-0.87;-1.741;-1.104;-0.964
679;-0.791;-1.729;-1.094;-0.98
679.5;-0.807;-1.624;-1.115;-0.954
680;-0.678;-1.415;-1.078;-0.908
680.5;-0.673;-1.215;-1.099;-0.924
681;-0.72;-1.147;-1.191;-0.989
681.5;-0.658;-0.956;-1.196;-1.002
682;-0.547;-0.767;-1.175;-1.003
682.5;-0.62;-0.781;-1.182;-0.989
683;-0.559;-0.809;-1.073;-0.892
683.5;-0.525;-0.91;-1.001;-0.801
684;-0.563;-1.112;-1.019;-0.753
684.5;-0.786;-1.27;-0.996;-0.704
685;-0.783;-1.344;-0.963;-0.606
685.5;-0.843;-1.395;-1.004;-0.566
686;-0.889;-1.52;-1.076;-0.574
686.5;-0.771;-1.391;-1.05;-0.498
687;-0.681;-1.303;-1.043;-0.546
687.5;-0.676;-1.255;-1.085;-0.585
688;-0.456;-1.103;-1.005;-0.625
688.5;-0.334;-1.059;-0.993;-0.714
689;-0.267;-1.095;-1.077;-0.835
689.5;-0.266;-1.112;-1.089;-0.877
690;-0.232;-1.197;-1.117;-0.872
690.5;-0.38;-1.297;-1.173;-0.849
691;-0.553;-1.372;-1.168;-0.819
691.5;-0.645;-1.401;-1.109;-0.747
692;-0.757;-1.522;-1.117;-0.839
692.5;-0.871;-1.632;-1.217;-0.957
693;-0.917;-1.595;-1.207;-1.054
693.5;-0.882;-1.632;-1.251;-1.165
694;-0.802;-1.719;-1.364;-1.249
694.5;-0.744;-1.807;-1.387;-1.283
695;-0.848;-1.931;-1.439;-1.247
695.5;-0.918;-1.885;-1.386;-1.121
696;-0.815;-1.787;-1.268;-0.963
696.5;-0.907;-1.76;-1.21;-0.846
697;-0.892;-1.72;-1.172;-0.791
697.5;-0.885;-1.588;-1.153;-0.746
698;-0.848;-1.318;-1.036;-0.707
698.5;-0.642;-1.05;-0.966;-0.675
699;-0.425;-0.81;-0.854;-0.614
699.5;-0.352;-0.762;-0.775;-0.596
700;-0.384;-0.743;-0.767;-0.574
700.5;-0.331;-0.648;-0.705;-0.543
701;-0.355;-0.765;-0.726;-0.525
701.5;-0.698;-1.036;-0.852;-0.565
702;-0.764;-1.209;-0.901;-0.608
702.5;-0.748;-1.25;-0.91;-0.571
703;-0.752;-1.193;-0.911;-0.566
703.5;-0.684;-1.113;-0.928;-0.539
704;-0.55;-1.082;-0.931;-0.499
704.5;-0.521;-1.152;-0.917;-0.499
705;-0.551;-1.294;-0.984;-0.566
705.5;-0.709;-1.484;-1.027;-0.719
706;-0.912;-1.654;-1.069;-0.816
706.5;-1.237;-1.892;-1.175;-0.963
707;-1.331;-2.055;-1.178;-1.041
707.5;-1.37;-2.019;-1.201;-1.02
708;-1.47;-2;-1.259;-1.082
708.5;-1.47;-1.926;-1.318;-1.117
709;-1.281;-1.762;-1.336;-1.081
709.5;-1.109;-1.593;-1.333;-1.121
710;-1.03;-1.561;-1.403;-1.176
710.5;-0.95;-1.476;-1.378;-1.204
711;-0.761;-1.253;-1.248;-1.121
711.5;-0.642;-1.225;-1.151;-1.091
712;-0.607;-1.266;-1.046;-1.05
712.5;-0.697;-1.36;-1.033;-0.996
713;-0.934;-1.615;-1.07;-1.024
713.5;-1.125;-1.791;-1.103;-1.01
714;-1.241;-1.914;-1.128;-1.025
714.5;-1.39;-1.905;-1.159;-1.046
715;-1.419;-1.845;-1.189;-1.007
715.5;-1.287;-1.641;-1.155;-0.911
716;-1.127;-1.491;-1.055;-0.808
716.5;-0.912;-1.297;-0.951;-0.768
717;-0.838;-1.238;-0.98;-0.793
717.5;-0.794;-1.217;-1;-0.74
718;-0.821;-1.188;-0.976;-0.694
718.5;-0.84;-1.238;-0.969;-0.668
719;-0.875;-1.299;-0.977;-0.674
719.5;-0.866;-1.168;-0.916;-0.578
720;-0.779;-1.141;-0.926;-0.493
720.5;-0.707;-1.152;-0.895;-0.469
721;-0.805;-1.379;-0.988;-0.591
721.5;-0.788;-1.413;-1.046;-0.699
722;-0.903;-1.607;-1.206;-0.839
722.5;-0.885;-1.594;-1.223;-0.925
723;-0.91;-1.558;-1.196;-1.001
723.5;-0.951;-1.68;-1.253;-1.108
724;-1.046;-1.849;-1.322;-1.203
724.5;-1.047;-1.848;-1.254;-1.149
725;-1.073;-1.929;-1.221;-1.132
725.5;-1.126;-1.971;-1.216;-1.142
726;-1.136;-1.892;-1.198;-1.154
726.5;-1.067;-1.788;-1.135;-1.046
727;-0.957;-1.526;-1.069;-0.86
727.5;-0.723;-1.139;-0.927;-0.65
728;-0.655;-0.841;-0.872;-0.48
728.5;-0.457;-0.616;-0.825;-0.371
729;-0.391;-0.559;-0.839;-0.35
729.5;-0.352;-0.595;-0.849;-0.41
730;-0.37;-0.698;-0.95;-0.542
730.5;-0.531;-0.878;-1.085;-0.78
731;-0.659;-1.174;-1.195;-1.01
731.5;-0.823;-1.579;-1.318;-1.23
732;-0.834;-1.599;-1.335;-1.265
732.5;-0.884;-1.63;-1.317;-1.196
733;-1.003;-1.636;-1.302;-1.127
733.5;-0.913;-1.39;-1.144;-0.978
734;-0.863;-1.275;-1.052;-0.856
734.5;-0.781;-1.148;-1.003;-0.775
735;-0.676;-1.062;-1.014;-0.72
735.5;-0.645;-1.079;-1.041;-0.712
736;-0.745;-1.259;-1.154;-0.775
736.5;-0.794;-1.493;-1.217;-0.904
737;-0.704;-1.496;-1.225;-0.918
737.5;-0.707;-1.642;-1.313;-0.975
738;-0.672;-1.691;-1.372;-1.021
738.5;-0.532;-1.605;-1.295;-1.007
739;-0.455;-1.486;-1.335;-0.938
739.5;-0.479;-1.423;-1.338;-0.876
740;-0.484;-1.371;-1.361;-0.823
740.5;-0.585;-1.445;-1.37;-0.789
741;-0.828;-1.517;-1.368;-0.806
741.5;-0.86;-1.541;-1.267;-0.804
742;-0.854;-1.412;-1.18;-0.728
742.5;-0.765;-1.297;-1.175;-0.734
743;-0.66;-1.114;-1.135;-0.727
743.5;-0.515;-0.893;-1.017;-0.638
744;-0.502;-0.788;-1.013;-0.541
744.5;-0.576;-0.847;-0.938;-0.499
745;-0.588;-0.839;-0.879;-0.41
745.5;-0.642;-0.911;-0.804;-0.387
746;-0.656;-0.928;-0.773;-0.379
746.5;-0.634;-0.931;-0.78;-0.381
747;-0.638;-0.914;-0.865;-0.447
747.5;-0.552;-0.839;-0.96;-0.484
748;-0.519;-0.763;-0.992;-0.533
748.5;-0.51;-0.715;-0.995;-0.517
749;-0.568;-0.779;-1.058;-0.595
749.5;-0.585;-0.78;-1.044;-0.619
750;-0.633;-0.793;-0.985;-0.569
750.5;-0.614;-0.723;-0.916;-0.554
751;-0.561;-0.72;-0.878;-0.552
751.5;-0.691;-0.756;-0.869;-0.575
752;-0.768;-0.866;-0.882;-0.655
752.5;-0.988;-1.047;-0.928;-0.729
753;-1.063;-1.198;-0.918;-0.788
753.5;-1.264;-1.376;-0.982;-0.917
754;-1.44;-1.656;-1.193;-1.118
754.5;-1.453;-1.786;-1.341;-1.235
755;-1.433;-1.833;-1.393;-1.283
755.5;-1.222;-1.774;-1.389;-1.245
756;-1.061;-1.624;-1.362;-1.239
756.5;-0.959;-1.474;-1.272;-1.201
757;-0.787;-1.308;-1.263;-1.13
757.5;-0.781;-1.369;-1.205;-1.05
758;-0.783;-1.562;-1.135;-1.035
758.5;-0.883;-1.716;-1.094;-1.02
759;-1.001;-1.862;-1.134;-0.979
759.5;-1.047;-1.89;-1.15;-0.873
760;-1.035;-1.645;-1.078;-0.736
760.5;-1.042;-1.554;-1.087;-0.648
761;-1.153;-1.449;-1.127;-0.639
761.5;-1.099;-1.275;-1.094;-0.595
762;-1.039;-1.21;-1.185;-0.638
762.5;-1.001;-1.356;-1.296;-0.791
763;-0.97;-1.506;-1.384;-1.008
763.5;-0.822;-1.414;-1.42;-1.051
764;-0.742;-1.336;-1.459;-1.045
764.5;-0.582;-1.205;-1.448;-0.972
765;-0.527;-1.098;-1.374;-0.904
765.5;-0.657;-1.28;-1.373;-0.979
766;-0.693;-1.429;-1.307;-0.998
766.5;-0.803;-1.504;-1.196;-0.986
767;-1.028;-1.72;-1.249;-1.105
767.5;-1.181;-1.839;-1.302;-1.175
768;-1.415;-1.924;-1.328;-1.205
768.5;-1.379;-1.782;-1.272;-1.097
769;-1.313;-1.61;-1.23;-0.923
769.5;-1.173;-1.425;-1.188;-0.771
770;-1.084;-1.449;-1.187;-0.74
770.5;-1.025;-1.43;-1.183;-0.798
771;-0.942;-1.41;-1.256;-0.889
771.5;-0.843;-1.347;-1.304;-0.914
772;-0.776;-1.338;-1.364;-0.864
772.5;-0.919;-1.422;-1.461;-0.898
773;-1.105;-1.565;-1.507;-0.919
773.5;-1.064;-1.561;-1.436;-0.847
774;-1.045;-1.538;-1.323;-0.743
774.5;-1.139;-1.641;-1.369;-0.773
775;-1.073;-1.789;-1.342;-0.81
775.5;-0.892;-1.714;-1.275;-0.823
776;-0.886;-1.699;-1.31;-0.911
776.5;-0.559;-1.462;-1.139;-0.883
777;-0.429;-1.251;-1.079;-0.77
777.5;-0.629;-1.242;-1.165;-0.907
778;-0.737;-1.183;-1.167;-0.906
778.5;-0.862;-1.251;-1.189;-0.926
779;-1.058;-1.241;-1.167;-0.942
779.5;-1.284;-1.359;-1.252;-0.991
780;-1.302;-1.546;-1.265;-0.956
780.5;-1.237;-1.491;-1.277;-0.96
781;-1.369;-1.536;-1.307;-0.971
781.5;-1.18;-1.511;-1.261;-0.936
782;-1.056;-1.59;-1.372;-0.826
782.5;-1.092;-1.633;-1.433;-0.924
783;-1.063;-1.65;-1.462;-1.04
783.5;-1.047;-1.76;-1.466;-1.161
784;-1.034;-1.643;-1.379;-1.207
784.5;-1.026;-1.784;-1.369;-1.231
785;-1.009;-1.817;-1.352;-1.248
785.5;-1.001;-1.603;-1.314;-1.243
786;-1.186;-1.706;-1.352;-1.247
786.5;-1.332;-1.926;-1.463;-1.229
787;-1.307;-1.946;-1.486;-1.114
787.5;-1.281;-1.795;-1.529;-1.147
788;-1.115;-1.556;-1.462;-1.09
788.5;-0.89;-1.257;-1.427;-0.963
789;-0.68;-0.986;-1.308;-0.761
789.5;-0.712;-1.215;-1.317;-0.728
790;-0.713;-1.104;-1.225;-0.692
790.5;-0.834;-1.155;-1.184;-0.72
791;-1.139;-1.5;-1.24;-0.738
791.5;-1.244;-1.7;-1.156;-0.669
792;-1.214;-1.656;-1.051;-0.611
792.5;-1.202;-1.476;-1.031;-0.488
793;-1.048;-1.259;-0.968;-0.442
793.5;-0.88;-1.109;-0.998;-0.404
794;-0.818;-1.064;-0.98;-0.382
794.5;-0.96;-1.106;-1.067;-0.5
795;-0.892;-0.952;-1.056;-0.641
795.5;-0.955;-1.058;-1.123;-0.704
796;-1.088;-1.303;-1.199;-0.782
796.5;-1.066;-1.472;-1.182;-0.829
797;-1.39;-1.739;-1.299;-0.966
797.5;-1.711;-1.889;-1.454;-1.018
798;-1.763;-2.13;-1.636;-1.18
798.5;-1.809;-2.201;-1.657;-1.24
799;-1.746;-2.085;-1.62;-1.304
799.5;-1.551;-1.813;-1.655;-1.401
800;-1.181;-1.497;-1.529;-1.341
800.5;-1.027;-1.279;-1.496;-1.226
801;-0.831;-1.176;-1.383;-1.158
801.5;-0.55;-1.034;-1.365;-1.013
802;-0.752;-1.135;-1.377;-0.994
802.5;-0.942;-1.274;-1.488;-0.918
803;-1.082;-1.449;-1.543;-0.9
803.5;-1.289;-1.702;-1.595;-0.994
804;-1.336;-1.987;-1.465;-1.164
804.5;-1.282;-2.24;-1.567;-1.395
805;-1.403;-2.313;-1.578;-1.487
805.5;-1.549;-2.245;-1.53;-1.618
806;-1.469;-2.219;-1.437;-1.614
806.5;-1.209;-2.122;-1.374;-1.568
807;-1.082;-1.916;-1.152;-1.394
807.5;-0.833;-1.655;-1.057;-1.097
808;-0.702;-1.493;-1.033;-0.954
808.5;-0.683;-1.414;-1.007;-0.773
809;-0.564;-1.303;-0.943;-0.718
809.5;-0.392;-1.091;-1.05;-0.66
810;-0.59;-0.935;-1.128;-0.677
810.5;-0.982;-0.949;-1.166;-0.873
811;-1.228;-1.263;-1.387;-1.097
811.5;-1.255;-1.673;-1.548;-1.293
812;-1.43;-2.044;-1.593;-1.412
812.5;-1.521;-2.5;-1.66;-1.489
813;-1.586;-2.761;-1.777;-1.501
813.5;-1.678;-2.572;-1.703;-1.259
814;-1.643;-2.223;-1.629;-1.105
814.5;-1.512;-1.759;-1.492;-0.816
815;-1.79;-1.608;-1.424;-0.8
815.5;-1.872;-1.439;-1.305;-0.829
816;-1.755;-1.296;-1.22;-0.806
816.5;-1.501;-1.416;-1.177;-0.831
817;-1.437;-1.548;-1.123;-0.911
817.5;-1.139;-1.587;-1.008;-0.862
818;-0.85;-1.545;-1;-0.743
818.5;-0.605;-1.438;-0.976;-0.586
819;-0.647;-1.509;-1.134;-0.614
819.5;-0.674;-1.595;-1.325;-0.639
820;-0.884;-1.74;-1.429;-0.817
820.5;-0.767;-1.569;-1.4;-0.872
821;-0.638;-1.25;-1.316;-0.865
821.5;-0.4;-0.979;-1.3;-0.847
822;-0.287;-0.683;-1.247;-0.831
822.5;-0.137;-0.509;-1.156;-0.799
823;-0.003;-0.495;-1.128;-0.73
823.5;0.147;-0.534;-1.123;-0.664
824;0.027;-0.721;-1.272;-0.69
824.5;-0.029;-0.824;-1.296;-0.705
825;-0.196;-0.898;-1.286;-0.73
825.5;-0.227;-0.883;-1.27;-0.712
826;-0.272;-0.909;-1.269;-0.74
826.5;-0.36;-0.964;-1.318;-0.783
827;-0.563;-1.192;-1.434;-0.889
827.5;-0.739;-1.431;-1.492;-0.976
828;-0.699;-1.404;-1.466;-0.909
828.5;-0.751;-1.465;-1.447;-0.883
829;-0.712;-1.483;-1.383;-0.787
829.5;-0.832;-1.491;-1.348;-0.817
830;-0.955;-1.577;-1.338;-0.828
830.5;-0.976;-1.568;-1.282;-0.748
831;-1.114;-1.625;-1.353;-0.795
831.5;-1.089;-1.681;-1.435;-0.789
832;-1.274;-1.818;-1.572;-0.827
832.5;-1.231;-1.759;-1.552;-0.809
833;-0.996;-1.509;-1.5;-0.814
833.5;-0.843;-1.328;-1.352;-0.818
834;-0.612;-1.082;-1.159;-0.849
834.5;-0.534;-0.947;-1.067;-0.95
835;-0.491;-0.956;-0.928;-0.941
835.5;-0.459;-0.753;-0.784;-0.843
836;-0.487;-0.738;-0.858;-0.836
836.5;-0.446;-0.73;-0.892;-0.685
837;-0.689;-0.862;-0.999;-0.592
837.5;-0.833;-1.084;-1.089;-0.611
838;-0.874;-1.121;-1.088;-0.565
838.5;-1.037;-1.223;-1.132;-0.566
839;-1.122;-1.315;-1.186;-0.685
839.5;-1.039;-1.362;-1.206;-0.658
840;-0.944;-1.227;-1.021;-0.534
840.5;-0.772;-0.913;-1.009;-0.525
841;-0.564;-0.851;-1.013;-0.578
841.5;-0.449;-0.8;-0.924;-0.399
842;-0.736;-1.09;-1.031;-0.459
842.5;-1.176;-1.489;-1.04;-0.558
843;-1.436;-1.935;-1.115;-0.607
843.5;-1.807;-2.275;-1.256;-0.797
844;-1.723;-2.541;-1.312;-0.913
844.5;-1.731;-2.555;-1.353;-0.867
845;-1.505;-2.42;-1.22;-0.772
845.5;-1.282;-1.985;-1.267;-0.666
846;-1.129;-2.047;-1.232;-0.683
846.5;-1.01;-1.912;-1.314;-0.47
847;-1.11;-1.814;-1.236;-0.462
847.5;-1.468;-1.691;-1.297;-0.522
848;-1.847;-1.931;-1.489;-0.64
848.5;-1.887;-1.633;-1.396;-0.562
849;-2.022;-1.613;-1.427;-0.747
849.5;-2.199;-1.771;-1.431;-0.761
850;-2.092;-1.8;-1.304;-0.773
;;;;
;;;;
;;;;
;;;;
;;;;
;;;;
;;;;
;;;;
;;;;
;;;;
;;;;
;;;;
;;;;
;;;;
;;;;
;;;;
;;;;
;;;;
;;;;
;;;;
;;;;
;;;;
;;;;
;;;;
;;;;
;;;;
;;;;
;;;;
;;;;
;;;;
;;;;
;;;;
;;;;
;;;;
;;;;
;;;;
;;;;
;;;;
;;;;
;;;;
;;;;
;;;;
;;;;
;;;;
;;;;
;;;;
;;;;
;;;;
;;;;
;;;;
;;;;
;;;;
;;;;
;;;;
;;;;
;;;;
;;;;
;;;;
;;;;
;;;;
;;;;
;;;;
;;;;
;;;;
;;;;
;;;;
;;;;
;;;;
;;;;
;;;;
;;;;
;;;;
;;;;
;;;;
;;;;
;;;;
;;;;
;;;;
;;;;
;;;;
;;;;
;;;;
;;;;
;;;;
;;;;
;;;;
;;;;
;;;;
;;;;
;;;;
;;;;
;;;;
;;;;
;;;;
;;;;
;;;;
;;;;
;;;;
;;;;
;;;;
;;;;
;;;;
;;;;
;;;;
;;;;
;;;;
;;;;
;;;;
;;;;
;;;;
;;;;
;;;;
;;;;
;;;;
;;;;
;;;;
;;;;
;;;;
;;;;
;;;;
;;;;
;;;;
;;;;
;;;;
;;;;
;;;;
;;;;
;;;;
;;;;
;;;;
;;;;
;;;;
;;;;
;;;;
;;;;
;;;;
;;;;
;;;;
;;;;
;;;;
;;;;
;;;;
;;;;
;;;;
;;;;
;;;;
;;;;
;;;;
;;;;
;;;;
;;;;
;;;;
;;;;
;;;;
;;;;
;;;;
;;;;
;;;;
;;;;
;;;;
;;;;
;;;;
;;;;
;;;;
;;;;
;;;;
;;;;
;;;;
;;;;
;;;;
;;;;
;;;;
;;;;
;;;;
;;;;
;;;;
;;;;
;;;;
;;;;
;;;;
;;;;
;;;;
;;;;
;;;;
;;;;
;;;;
;;;;
;;;;
;;;;
;;;;
;;;;
;;;;
;;;;
;;;;
;;;;
;;;;
;;;;
;;;;
;;;;
;;;;
;;;;
;;;;
;;;;
;;;;
;;;;
;;;;
;;;;
;;;;
;;;;
;;;;
;;;;
;;;;
;;;;
;;;;
;;;;
;;;;
;;;;
;;;;
;;;;
;;;;
;;;;
;;;;
;;;;
;;;;
;;;;
;;;;
;;;;
;;;;
;;;;
;;;;
;;;;
;;;;
;;;;
;;;;
;;;;
;;;;
;;;;
;;;;
;;;;
;;;;
;;;;
;;;;
;;;;
;;;;
;;;;
;;;;
;;;;
;;;;
;;;;
;;;;
;;;;
;;;;
;;;;
;;;;
;;;;
;;;;
;;;;
;;;;
;;;;
;;;;
;;;;
;;;;
;;;;
;;;;
;;;;
;;;;
;;;;
;;;;
;;;;
;;;;
;;;;
;;;;
;;;;
;;;;
;;;;
;;;;
;;;;
;;;;
;;;;
;;;;
;;;;
;;;;
;;;;
;;;;
;;;;
;;;;
;;;;
;;;;
;;;;
;;;;
;;;;
;;;;
;;;;
;;;;
;;;;
;;;;
;;;;
;;;;
;;;;
;;;;
;;;;
;;;;
;;;;
;;;;
;;;;
;;;;
;;;;
;;;;
;;;;
;;;;
;;;;
;;;;
;;;;
;;;;
;;;;
;;;;
;;;;
;;;;
;;;;
;;;;
;;;;
;;;;
;;;;
;;;;
;;;;
;;;;
;;;;
;;;;
;;;;
;;;;
;;;;
;;;;
;;;;
;;;;
;;;;
;;;;
;;;;
;;;;
;;;;
;;;;
;;;;
;;;;
;;;;
;;;;
;;;;
;;;;
;;;;
;;;;
;;;;
;;;;
;;;;
;;;;
;;;;
;;;;
;;;;
;;;;
;;;;
;;;;
;;;;
;;;;
;;;;
;;;;
;;;;
;;;;
;;;;
;;;;
;;;;
;;;;
;;;;
;;;;
;;;;
;;;;
;;;;
;;;;
;;;;
;;;;
;;;;
;;;;
;;;;
;;;;
;;;;
;;;;
;;;;
;;;;
;;;;
;;;;
;;;;
;;;;
;;;;
;;;;
;;;;
;;;;
;;;;
;;;;
;;;;
;;;;
;;;;
;;;;
;;;;
;;;;
;;;;
;;;;
;;;;
;;;;
;;;;
;;;;
;;;;
;;;;
;;;;
;;;;
;;;;
;;;;
;;;;
;;;;
;;;;
;;;;
;;;;
;;;;
;;;;
;;;;
;;;;
;;;;
;;;;
;;;;
;;;;
;;;;
;;;;
;;;;
;;;;
;;;;
;;;;
;;;;
;;;;
;;;;
;;;;
;;;;
;;;;
;;;;
;;;;
;;;;
;;;;
;;;;
;;;;
;;;;
;;;;
;;;;
;;;;
;;;;
;;;;
;;;;
;;;;
;;;;
;;;;
;;;;
;;;;
;;;;
;;;;
;;;;
;;;;
;;;;
;;;;
;;;;
;;;;
;;;;
;;;;
;;;;
;;;;
;;;;
;;;;
;;;;
;;;;
;;;;
;;;;
;;;;
;;;;
;;;;
;;;;
;;;;
;;;;
;;;;
;;;;
;;;;
;;;;
;;;;
;;;;
;;;;
;;;;
;;;;
;;;;
;;;;
;;;;
;;;;
;;;;
;;;;
;;;;
;;;;
;;;;
;;;;
;;;;
;;;;
;;;;
;;;;
;;;;
;;;;
;;;;
;;;;
;;;;
;;;;
;;;;
;;;;
;;;;
;;;;
;;;;
;;;;
;;;;
;;;;
;;;;
;;;;
;;;;
;;;;
;;;;
;;;;
;;;;
;;;;
;;;;
;;;;
;;;;
;;;;
;;;;
;;;;
;;;;
;;;;
;;;;
;;;;
;;;;
;;;;
;;;;
;;;;
;;;;
;;;;
;;;;
;;;;
;;;;
;;;;
;;;;
;;;;
;;;;
;;;;
;;;;
;;;;
;;;;
;;;;
;;;;
;;;;
;;;;
;;;;
;;;;
;;;;
;;;;
;;;;
;;;;
;;;;
;;;;
;;;;
;;;;
;;;;
;;;;
;;;;
;;;;
;;;;
;;;;
;;;;
;;;;
;;;;
;;;;
;;;;
;;;;
;;;;
;;;;
;;;;
;;;;
;;;;
;;;;
;;;;
;;;;
;;;;
;;;;
;;;;
;;;;
;;;;
;;;;
;;;;
;;;;
;;;;
;;;;
;;;;
;;;;
;;;;
;;;;
;;;;
;;;;
;;;;
;;;;
;;;;
;;;;
;;;;
;;;;
;;;;
;;;;
;;;;
;;;;
;;;;
;;;;
;;;;
;;;;
;;;;
;;;;
;;;;
;;;;
;;;;
;;;;
;;;;
;;;;
;;;;
;;;;
;;;;
;;;;
;;;;
;;;;
;;;;
;;;;
;;;;
;;;;
;;;;
;;;;
;;;;
;;;;
;;;;
;;;;
;;;;
;;;;
;;;;
;;;;
;;;;
;;;;
;;;;
;;;;
;;;;
;;;;
;;;;
;;;;
;;;;
;;;;
;;;;
;;;;
;;;;
;;;;
;;;;
;;;;
;;;;
;;;;
;;;;
;;;;
;;;;
;;;;
;;;;
;;;;
;;;;
;;;;
;;;;
;;;;
;;;;
;;;;
;;;;
;;;;
;;;;
;;;;
;;;;
;;;;
;;;;
;;;;
;;;;
;;;;
;;;;
;;;;
;;;;
;;;;
;;;;
;;;;
;;;;
;;;;
;;;;
;;;;
;;;;
;;;;
;;;;
;;;;
;;;;
;;;;
;;;;
;;;;
;;;;
;;;;
;;;;
;;;;
;;;;
;;;;
;;;;
;;;;
;;;;
;;;;
;;;;
;;;;
;;;;
;;;;
;;;;
;;;;
;;;;
;;;;
;;;;
;;;;
;;;;
;;;;
;;;;
;;;;
;;;;
;;;;
;;;;
;;;;
;;;;
;;;;
;;;;
;;;;
;;;;
;;;;
;;;;
;;;;
;;;;
;;;;
;;;;
;;;;
;;;;
;;;;
;;;;
;;;;
;;;;
;;;;
;;;;
;;;;
;;;;
;;;;
;;;;
;;;;
;;;;
;;;;
;;;;
;;;;
;;;;
;;;;
;;;;
;;;;
;;;;
;;;;
;;;;
;;;;
;;;;
;;;;
;;;;
;;;;
;;;;
;;;;
;;;;
;;;;
;;;;
;;;;
;;;;
;;;;
;;;;
;;;;
;;;;
;;;;
;;;;
;;;;
;;;;
;;;;
;;;;
;;;;
;;;;
;;;;
;;;;
;;;;
;;;;
;;;;
;;;;
;;;;
;;;;
;;;;
;;;;
;;;;
;;;;
;;;;
;;;;
;;;;
;;;;
;;;;
;;;;
;;;;
;;;;
;;;;
;;;;
;;;;
;;;;
;;;;
;;;;
;;;;
;;;;
;;;;
;;;;
;;;;
;;;;
;;;;
;;;;
;;;;
;;;;
;;;;
;;;;
;;;;
;;;;
;;;;
;;;;
;;;;
;;;;
;;;;
;;;;
;;;;
;;;;
;;;;
;;;;
;;;;
;;;;
;;;;
;;;;
;;;;
;;;;
;;;;
;;;;
;;;;
;;;;
;;;;
;;;;
;;;;
;;;;
;;;;
;;;;
;;;;
;;;;
;;;;
;;;;
;;;;
;;;;
;;;;
;;;;
;;;;
;;;;
;;;;
;;;;
;;;;
;;;;
;;;;
;;;;
;;;;
;;;;
;;;;
;;;;
;;;;
;;;;
;;;;
;;;;
;;;;
;;;;
;;;;
;;;;
;;;;
;;;;
;;;;
;;;;
;;;;
;;;;
;;;;
;;;;
;;;;
;;;;
;;;;
;;;;
;;;;
;;;;
;;;;
;;;;
;;;;
;;;;
;;;;
;;;;
;;;;
;;;;
;;;;
;;;;
;;;;
;;;;
;;;;
;;;;
;;;;
;;;;
;;;;
;;;;
;;;;
;;;;
;;;;
;;;;
;;;;
;;;;
;;;;
;;;;
;;;;
;;;;
;;;;
;;;;
;;;;
;;;;
;;;;
;;;;
;;;;
;;;;
;;;;
;;;;
;;;;
;;;;
;;;;
;;;;
;;;;
;;;;
;;;;
;;;;
;;;;
;;;;
;;;;
;;;;
;;;;
;;;;
;;;;
;;;;
;;;;
;;;;
;;;;
;;;;
;;;;
;;;;
;;;;
;;;;
;;;;
;;;;
;;;;
;;;;
;;;;
;;;;
;;;;
;;;;
;;;;
;;;;
;;;;
;;;;
;;;;
;;;;
;;;;
;;;;
;;;;
;;;;
;;;;
;;;;
;;;;
;;;;
;;;;
;;;;
;;;;
;;;;
;;;;
;;;;
;;;;
;;;;
;;;;
;;;;
;;;;
;;;;
;;;;
;;;;
;;;;
;;;;
;;;;
;;;;
;;;;
;;;;
;;;;
;;;;
;;;;
;;;;
;;;;
;;;;
;;;;
;;;;
;;;;
;;;;
;;;;
;;;;
;;;;
;;;;
;;;;
;;;;
;;;;
;;;;
;;;;
;;;;
;;;;
;;;;
;;;;
;;;;
;;;;
;;;;
;;;;
;;;;
;;;;
;;;;
;;;;
;;;;
;;;;
;;;;
;;;;
;;;;
;;;;
;;;;
;;;;
;;;;
;;;;
;;;;
;;;;
;;;;
;;;;
;;;;
;;;;
;;;;
;;;;
;;;;
;;;;
;;;;
;;;;
;;;;
;;;;
;;;;
;;;;
;;;;
;;;;
;;;;
;;;;
;;;;
;;;;
;;;;
;;;;
;;;;
;;;;
;;;;
;;;;
;;;;
;;;;
;;;;
;;;;
;;;;
;;;;
;;;;
;;;;
;;;;
;;;;
;;;;
;;;;
;;;;
;;;;
;;;;
;;;;
;;;;
;;;;
;;;;
;;;;
;;;;
;;;;
;;;;
;;;;
;;;;
;;;;
;;;;
;;;;
;;;;
;;;;
;;;;
;;;;
;;;;
;;;;
;;;;
;;;;
;;;;
;;;;
;;;;
;;;;
;;;;
;;;;
;;;;
;;;;
;;;;
;;;;
;;;;
;;;;
;;;;
;;;;
;;;;
;;;;
;;;;
;;;;
;;;;
;;;;
;;;;
;;;;
;;;;
;;;;
;;;;
;;;;
;;;;
;;;;
;;;;
;;;;
;;;;
;;;;
;;;;
;;;;
;;;;
;;;;
;;;;
;;;;
;;;;
;;;;
;;;;
;;;;
;;;;
;;;;
;;;;
;;;;
;;;;
;;;;
;;;;
;;;;
;;;;
;;;;
;;;;
;;;;
;;;;
;;;;
;;;;
;;;;
;;;;
;;;;
;;;;
;;;;
;;;;
;;;;
;;;;
;;;;
;;;;
;;;;
;;;;
;;;;
;;;;
;;;;
;;;;
;;;;
;;;;
;;;;
;;;;
;;;;
;;;;
;;;;
;;;;
;;;;
;;;;
;;;;
;;;;
;;;;
;;;;
;;;;
;;;;
;;;;
;;;;
;;;;
;;;;
;;;;
;;;;
;;;;
;;;;
;;;;
;;;;
;;;;
;;;;
;;;;
;;;;
;;;;
;;;;
;;;;
;;;;
;;;;
;;;;
;;;;
;;;;
;;;;
;;;;
;;;;
;;;;
;;;;
;;;;
;;;;
;;;;
;;;;
;;;;
;;;;
;;;;
;;;;
;;;;
;;;;
;;;;
;;;;
;;;;
;;;;
;;;;
;;;;
;;;;
;;;;
;;;;
;;;;
;;;;
;;;;
;;;;
;;;;
;;;;
;;;;
;;;;
;;;;
;;;;
;;;;
;;;;
;;;;
;;;;
;;;;
;;;;
;;;;
;;;;
;;;;
;;;;
;;;;
;;;;
;;;;
;;;;
;;;;
;;;;
;;;;
;;;;
;;;;
;;;;
;;;;
;;;;
;;;;
;;;;
;;;;
;;;;
;;;;
;;;;
;;;;
;;;;
;;;;
;;;;
;;;;
;;;;
;;;;
;;;;
;;;;
;;;;
;;;;
;;;;
;;;;
;;;;
;;;;
;;;;
;;;;
;;;;
;;;;
;;;;
;;;;
;;;;
;;;;
;;;;
;;;;
;;;;
;;;;
;;;;
;;;;
;;;;
;;;;
;;;;
;;;;
;;;;
;;;;
;;;;
;;;;
;;;;
;;;;
;;;;
;;;;
;;;;
;;;;
;;;;
;;;;
;;;;
;;;;
;;;;
;;;;
;;;;
;;;;
;;;;
;;;;
;;;;
;;;;
;;;;
;;;;
;;;;
;;;;
;;;;
;;;;
;;;;
;;;;
;;;;
;;;;
;;;;
;;;;
;;;;
;;;;
;;;;
;;;;
;;;;
;;;;
;;;;
;;;;
;;;;
;;;;
;;;;
;;;;
;;;;
;;;;
;;;;
;;;;
;;;;
;;;;
;;;;
;;;;
;;;;
;;;;
;;;;
;;;;
;;;;
;;;;
;;;;
;;;;
;;;;
;;;;
;;;;
;;;;
;;;;
;;;;
;;;;
;;;;
;;;;
;;;;
;;;;
;;;;
;;;;
;;;;
;;;;
;;;;
;;;;
;;;;
;;;;
;;;;
;;;;
;;;;
;;;;
;;;;
;;;;
;;;;
;;;;
;;;;
;;;;
;;;;
;;;;
;;;;
;;;;
;;;;
;;;;
;;;;
;;;;
;;;;
;;;;
;;;;
;;;;
;;;;
;;;;
;;;;
;;;;
;;;;
;;;;
;;;;
;;;;
;;;;
;;;;
;;;;
;;;;
;;;;
;;;;
;;;;
;;;;
;;;;
;;;;
;;;;
;;;;
;;;;
;;;;
;;;;
;;;;
;;;;
;;;;
;;;;
;;;;
;;;;
;;;;
;;;;
;;;;
;;;;
;;;;
;;;;
;;;;
;;;;
;;;;
;;;;
;;;;
;;;;
;;;;
;;;;
;;;;
;;;;
;;;;
;;;;
;;;;
;;;;
;;;;
;;;;
;;;;
;;;;
;;;;
;;;;
;;;;
;;;;
;;;;
;;;;
;;;;
;;;;
;;;;
;;;;
;;;;
;;;;
;;;;
;;;;
;;;;
;;;;
;;;;
;;;;
;;;;
;;;;
;;;;
;;;;
;;;;
;;;;
;;;;
;;;;
;;;;
;;;;
;;;;
;;;;
;;;;
;;;;
;;;;
;;;;
;;;;
;;;;
;;;;
;;;;
;;;;
;;;;
;;;;
;;;;
;;;;
;;;;
;;;;
;;;;
;;;;
;;;;
;;;;
;;;;
;;;;
;;;;
;;;;
;;;;
;;;;
;;;;
;;;;
;;;;
;;;;
;;;;
;;;;
;;;;
;;;;
;;;;
;;;;
;;;;
;;;;
;;;;
;;;;
;;;;
;;;;
;;;;
;;;;
;;;;
;;;;
;;;;
;;;;
;;;;
;;;;
;;;;
;;;;
;;;;
;;;;
;;;;
;;;;
;;;;
;;;;
;;;;
;;;;
;;;;
;;;;
;;;;
;;;;
;;;;
;;;;
;;;;
;;;;
;;;;
;;;;
;;;;
;;;;
;;;;
;;;;
;;;;
;;;;
;;;;
;;;;
;;;;
;;;;
;;;;
;;;;
;;;;
;;;;
;;;;
;;;;
;;;;
;;;;
;;;;
;;;;
;;;;
;;;;
;;;;
;;;;
;;;;
;;;;
;;;;
;;;;
;;;;
;;;;
;;;;
;;;;
;;;;
;;;;
;;;;
;;;;
;;;;
;;;;
;;;;
;;;;
;;;;
;;;;
;;;;
;;;;
;;;;
;;;;
;;;;
;;;;
;;;;
;;;;
;;;;
;;;;
;;;;
;;;;
;;;;
;;;;
;;;;
;;;;
;;;;
;;;;
;;;;
;;;;
;;;;
;;;;
;;;;
;;;;
;;;;
;;;;
;;;;
;;;;
;;;;
;;;;
;;;;
;;;;
;;;;
;;;;
;;;;
;;;;
;;;;
;;;;
;;;;
;;;;
;;;;
;;;;
;;;;
;;;;
;;;;
;;;;
;;;;
;;;;
;;;;
;;;;
;;;;
;;;;
;;;;
;;;;
;;;;
;;;;
;;;;
;;;;
;;;;
;;;;
;;;;
;;;;
;;;;
;;;;
;;;;
;;;;
;;;;
;;;;
;;;;
;;;;
;;;;
;;;;
;;;;
;;;;
;;;;
;;;;
;;;;
;;;;
;;;;
;;;;
;;;;
;;;;
;;;;
;;;;
;;;;
;;;;
;;;;
;;;;
;;;;
;;;;
;;;;
;;;;
;;;;
;;;;
;;;;
;;;;
;;;;
;;;;
;;;;
;;;;
;;;;
;;;;
;;;;
;;;;
;;;;
;;;;
;;;;
;;;;
;;;;
;;;;
;;;;
;;;;
;;;;
;;;;
;;;;
;;;;
;;;;
;;;;
;;;;
;;;;
;;;;
;;;;
;;;;
;;;;
;;;;
;;;;
;;;;
;;;;
;;;;
;;;;
;;;;
;;;;
;;;;
;;;;
;;;;
;;;;
;;;;
;;;;
;;;;
;;;;
;;;;
;;;;
;;;;
;;;;
;;;;
;;;;
;;;;
;;;;
;;;;
;;;;
;;;;
;;;;
;;;;
;;;;
;;;;
;;;;
;;;;
;;;;
;;;;
;;;;
;;;;
;;;;
;;;;
;;;;
;;;;
;;;;
;;;;
;;;;
;;;;
;;;;
;;;;
;;;;
;;;;
;;;;
;;;;
;;;;
;;;;
;;;;
;;;;
;;;;
;;;;
;;;;
;;;;
;;;;
;;;;
;;;;
;;;;
;;;;
;;;;
;;;;
;;;;
;;;;
;;;;
;;;;
;;;;
;;;;
;;;;
;;;;
;;;;
;;;;
;;;;
;;;;
;;;;
;;;;
;;;;
;;;;
;;;;
;;;;
;;;;
;;;;
;;;;
;;;;
;;;;
;;;;
;;;;
;;;;
;;;;
;;;;
;;;;
;;;;
;;;;
;;;;
;;;;
;;;;
;;;;
;;;;
;;;;
;;;;
;;;;
;;;;
;;;;
;;;;
;;;;
;;;;
;;;;
;;;;
;;;;
;;;;
;;;;
;;;;
;;;;
;;;;
;;;;
;;;;
;;;;
;;;;
;;;;
;;;;
;;;;
;;;;
;;;;
;;;;
;;;;
;;;;
;;;;
;;;;
;;;;
;;;;
;;;;
;;;;
;;;;
;;;;
;;;;
;;;;
;;;;
;;;;
;;;;
;;;;
;;;;
;;;;
;;;;
;;;;
;;;;
;;;;
;;;;
;;;;
;;;;
;;;;
;;;;
;;;;
;;;;
;;;;
;;;;
;;;;
;;;;
;;;;
;;;;
;;;;
;;;;
;;;;
;;;;
;;;;
;;;;
;;;;
;;;;
;;;;
;;;;
;;;;
;;;;
;;;;
;;;;
;;;;
;;;;
;;;;
;;;;
;;;;
;;;;
;;;;
;;;;
;;;;
;;;;
;;;;
;;;;
;;;;
;;;;
;;;;
;;;;
;;;;
;;;;
;;;;
;;;;
;;;;
;;;;
;;;;
;;;;
;;;;
;;;;
;;;;
;;;;
;;;;
;;;;
;;;;
;;;;
;;;;
;;;;
;;;;
;;;;
;;;;
;;;;
;;;;
;;;;
;;;;
;;;;
;;;;
;;;;
;;;;
;;;;
;;;;
;;;;
;;;;
;;;;
;;;;
;;;;
;;;;
;;;;
;;;;
;;;;
;;;;
;;;;
;;;;
;;;;
;;;;
;;;;
;;;;
;;;;
;;;;
;;;;
;;;;
;;;;
;;;;
;;;;
;;;;
;;;;
;;;;
;;;;
;;;;
;;;;
;;;;
;;;;
;;;;
;;;;
;;;;
;;;;
;;;;
;;;;
;;;;
;;;;
;;;;
;;;;
;;;;
;;;;
;;;;
;;;;
;;;;
;;;;
;;;;
;;;;
;;;;
;;;;
;;;;
;;;;
;;;;
;;;;
;;;;
;;;;
;;;;
;;;;
;;;;
;;;;
;;;;
;;;;
;;;;
;;;;
;;;;
;;;;
;;;;
;;;;
;;;;
;;;;
;;;;
;;;;
;;;;
;;;;
;;;;
;;;;
;;;;
;;;;
;;;;
;;;;
;;;;
;;;;
;;;;
;;;;
;;;;
;;;;
;;;;
;;;;
;;;;
;;;;
;;;;
;;;;
;;;;
;;;;
;;;;
;;;;
;;;;
;;;;
;;;;
;;;;
;;;;
;;;;
;;;;
;;;;
;;;;
;;;;
;;;;
;;;;
;;;;
;;;;
;;;;
;;;;
;;;;
;;;;
;;;;
;;;;
;;;;
;;;;
;;;;
;;;;
;;;;
;;;;
;;;;
;;;;
;;;;
;;;;
;;;;
;;;;
;;;;
;;;;
;;;;
;;;;
;;;;
;;;;
;;;;
;;;;
;;;;
;;;;
;;;;
;;;;
;;;;
;;;;
;;;;
;;;;
;;;;
;;;;
;;;;
;;;;
;;;;
;;;;
;;;;
;;;;
;;;;
;;;;
;;;;
;;;;
;;;;
;;;;
;;;;
;;;;
;;;;
;;;;
;;;;
;;;;
;;;;
;;;;
;;;;
;;;;
;;;;
;;;;
;;;;
;;;;
;;;;
;;;;
;;;;
;;;;
;;;;
;;;;
;;;;
;;;;
;;;;
;;;;
;;;;
;;;;
;;;;
;;;;
;;;;
;;;;
;;;;
;;;;
;;;;
;;;;
;;;;
;;;;
;;;;
;;;;
;;;;
;;;;
;;;;
;;;;
;;;;
;;;;
;;;;
;;;;
;;;;
;;;;
;;;;
;;;;
;;;;
;;;;
;;;;
;;;;
;;;;
;;;;
;;;;
;;;;
;;;;
;;;;
;;;;
;;;;
;;;;
;;;;
;;;;
;;;;
;;;;
;;;;
;;;;
;;;;
;;;;
;;;;
;;;;
;;;;
;;;;
;;;;
;;;;
;;;;
;;;;
;;;;
;;;;
;;;;
;;;;
;;;;
;;;;
;;;;
;;;;
;;;;
;;;;
;;;;
;;;;
;;;;
;;;;
;;;;
;;;;
;;;;
;;;;
;;;;
;;;;
;;;;
;;;;
;;;;
;;;;
;;;;
;;;;
;;;;
;;;;
;;;;
;;;;
;;;;
;;;;
;;;;
;;;;
;;;;
;;;;
;;;;
;;;;
;;;;
;;;;
;;;;
;;;;
;;;;
;;;;
;;;;
;;;;
;;;;
;;;;
;;;;
;;;;
;;;;
;;;;
;;;;
;;;;
;;;;
;;;;
;;;;
;;;;
;;;;
;;;;
;;;;
;;;;
;;;;
;;;;
;;;;
;;;;
;;;;
;;;;
;;;;
;;;;
;;;;
;;;;
;;;;
;;;;
;;;;
;;;;
;;;;
;;;;
;;;;
;;;;
;;;;
;;;;
;;;;
;;;;
;;;;
;;;;
;;;;
;;;;
;;;;
;;;;
;;;;
;;;;
;;;;
;;;;
;;;;
;;;;
;;;;
;;;;
;;;;
;;;;
;;;;
;;;;
;;;;
;;;;
;;;;
;;;;
;;;;
;;;;
;;;;
;;;;
;;;;
;;;;
;;;;
;;;;
;;;;
;;;;
;;;;
;;;;
;;;;
;;;;
;;;;
;;;;
;;;;
;;;;
;;;;
;;;;
;;;;
;;;;
;;;;
;;;;
;;;;
;;;;
;;;;
;;;;
;;;;
;;;;
;;;;
;;;;
;;;;
;;;;
;;;;
;;;;
;;;;
;;;;
;;;;
;;;;
;;;;
;;;;
;;;;
;;;;
;;;;
;;;;
;;;;
;;;;
;;;;
;;;;
;;;;
;;;;
;;;;
;;;;
;;;;
;;;;
;;;;
;;;;
;;;;
;;;;
;;;;
;;;;
;;;;
;;;;
;;;;
;;;;
;;;;
;;;;
;;;;
;;;;
;;;;
;;;;
;;;;
;;;;
;;;;
;;;;
;;;;
;;;;
;;;;
;;;;
;;;;
;;;;
;;;;
;;;;
;;;;
;;;;
;;;;
;;;;
;;;;
;;;;
;;;;
;;;;
;;;;
;;;;
;;;;
;;;;
;;;;
;;;;
;;;;
;;;;
;;;;
;;;;
;;;;
;;;;
;;;;
;;;;
;;;;
;;;;
;;;;
;;;;
;;;;
;;;;
;;;;
;;;;
;;;;
;;;;
;;;;
;;;;
;;;;
;;;;
;;;;
;;;;
;;;;
;;;;
;;;;
;;;;
;;;;
;;;;
;;;;
;;;;
;;;;
;;;;
;;;;
;;;;
;;;;
;;;;
;;;;
;;;;
;;;;
;;;;
;;;;
;;;;
;;;;
;;;;
;;;;
;;;;
;;;;
;;;;
;;;;
;;;;
;;;;
;;;;
;;;;
;;;;
;;;;
;;;;
;;;;
;;;;
;;;;
;;;;
;;;;
;;;;
;;;;
;;;;
;;;;
;;;;
;;;;
;;;;
;;;;
;;;;
;;;;
;;;;
;;;;
;;;;
;;;;
;;;;
;;;;
;;;;
;;;;
;;;;
;;;;
;;;;
;;;;
;;;;
;;;;
;;;;
;;;;
;;;;
;;;;
;;;;
;;;;
;;;;
;;;;
;;;;
;;;;
;;;;
;;;;
;;;;
;;;;
;;;;
;;;;
;;;;
;;;;
;;;;
;;;;
;;;;
;;;;
;;;;
;;;;
;;;;
;;;;
;;;;
;;;;
;;;;
;;;;
;;;;
;;;;
;;;;
;;;;
;;;;
;;;;
;;;;
;;;;
;;;;
;;;;
;;;;
;;;;
;;;;
;;;;
;;;;
;;;;
;;;;
;;;;
;;;;
;;;;
;;;;
;;;;
;;;;
;;;;
;;;;
;;;;
;;;;
;;;;
;;;;
;;;;
;;;;
;;;;
;;;;
;;;;
;;;;
;;;;
;;;;
;;;;
;;;;
;;;;
;;;;
;;;;
;;;;
;;;;
;;;;
;;;;
;;;;
;;;;
;;;;
;;;;
;;;;
;;;;
;;;;
;;;;
;;;;
;;;;
;;;;
;;;;
;;;;
;;;;
;;;;
;;;;
;;;;
;;;;
;;;;
;;;;
;;;;
;;;;
;;;;
;;;;
;;;;
;;;;
;;;;
;;;;
;;;;
;;;;
;;;;
;;;;
;;;;
;;;;
;;;;
;;;;
;;;;
;;;;
;;;;
;;;;
;;;;
;;;;
;;;;
;;;;
;;;;
;;;;
;;;;
;;;;
;;;;
;;;;
;;;;
;;;;
;;;;
;;;;
;;;;
;;;;
;;;;
;;;;
;;;;
;;;;
;;;;
;;;;
;;;;
;;;;
;;;;
;;;;
;;;;
;;;;
;;;;
;;;;
;;;;
;;;;
;;;;
;;;;
;;;;
;;;;
;;;;
;;;;
;;;;
;;;;
;;;;
;;;;
;;;;
;;;;
;;;;
;;;;
;;;;
;;;;
;;;;
;;;;
;;;;
;;;;
;;;;
;;;;
;;;;
;;;;
;;;;
;;;;
;;;;
;;;;
;;;;
;;;;
;;;;
;;;;
;;;;
;;;;
;;;;
;;;;
;;;;
